zs[m]              temperatures[K]   pressures[Pa]     rhos[kg/m^3]      kappas[m^2/kg]    gamma1s[1]        nablaads[1]       entropies[J/K]
-4.959271145e+05   4.348195622e+03   9.455763950e+01   3.292483196e-06   5.794816074e-04   1.640705347e+00   3.890962601e-01   3.380290891e-06
-4.904520924e+05   4.348491376e+03   9.962772829e+01   3.469052656e-06   6.053543619e-04   1.641361237e+00   3.893875778e-01   3.561315988e-06
-4.849342495e+05   4.348819391e+03   1.050124765e+02   3.656544567e-06   6.325422610e-04   1.641996861e+00   3.896655738e-01   3.753538930e-06
-4.793767289e+05   4.349183165e+03   1.107301695e+02   3.855586495e-06   6.611043933e-04   1.642617464e+00   3.899340630e-01   3.957603690e-06
-4.737824534e+05   4.349586572e+03   1.167999808e+02   4.066837852e-06   6.911013949e-04   1.643232822e+00   3.901993930e-01   4.174184248e-06
-4.681541292e+05   4.350033899e+03   1.232423386e+02   4.290994965e-06   7.225964686e-04   1.643855214e+00   3.904693425e-01   4.403997385e-06
-4.624942563e+05   4.350529891e+03   1.300788921e+02   4.528800026e-06   7.556567099e-04   1.644459486e+00   3.907331526e-01   4.647801122e-06
-4.568051424e+05   4.351079796e+03   1.373324787e+02   4.781031798e-06   7.903518172e-04   1.645035625e+00   3.909863532e-01   4.906393130e-06
-4.510889100e+05   4.351689417e+03   1.450275233e+02   5.048516165e-06   8.267555592e-04   1.645590782e+00   3.912310898e-01   5.180624510e-06
-4.453475066e+05   4.352365170e+03   1.531898053e+02   5.332127279e-06   8.649459156e-04   1.646134377e+00   3.914710581e-01   5.471390886e-06
-4.395827125e+05   4.353114143e+03   1.618466361e+02   5.632781767e-06   9.050043293e-04   1.646681190e+00   3.917116821e-01   5.779638091e-06
-4.337961496e+05   4.353944166e+03   1.710269260e+02   5.951447211e-06   9.470169135e-04   1.647219658e+00   3.919492662e-01   6.106363763e-06
-4.279893017e+05   4.354863880e+03   1.807612837e+02   6.289147862e-06   9.910752792e-04   1.647730589e+00   3.921772242e-01   6.452620001e-06
-4.221635352e+05   4.355882820e+03   1.910823499e+02   6.646975675e-06   1.037278046e-03   1.648216844e+00   3.923961222e-01   6.819524208e-06
-4.163201094e+05   4.357011495e+03   2.020243528e+02   7.026069847e-06   1.085728365e-03   1.648685813e+00   3.926075101e-01   7.208241998e-06
-4.104601847e+05   4.358261488e+03   2.136238297e+02   7.427640202e-06   1.136537115e-03   1.649148464e+00   3.928142488e-01   7.620011511e-06
-4.045848290e+05   4.359645545e+03   2.259191278e+02   7.852945921e-06   1.189820393e-03   1.649609089e+00   3.930175900e-01   8.056123953e-06
-3.986950117e+05   4.361177688e+03   2.389510145e+02   8.303304269e-06   1.245698296e-03   1.650048852e+00   3.932121098e-01   8.517943441e-06
-3.927915303e+05   4.362873325e+03   2.527626553e+02   8.780121634e-06   1.304262701e-03   1.650459290e+00   3.933932781e-01   9.006903995e-06
-3.868749333e+05   4.364749365e+03   2.674003907e+02   9.284891096e-06   1.365599608e-03   1.650830507e+00   3.935559094e-01   9.524534660e-06
-3.809456481e+05   4.366824346e+03   2.829134038e+02   9.819198069e-06   1.429859782e-03   1.651150227e+00   3.936929703e-01   1.007244467e-05
-3.750040983e+05   4.369118563e+03   2.993532533e+02   1.038467404e-05   1.497191666e-03   1.651396632e+00   3.937929571e-01   1.065230341e-05
-3.690506964e+05   4.371654200e+03   3.167747620e+02   1.098304916e-05   1.567761143e-03   1.651535034e+00   3.938412964e-01   1.126586819e-05
-3.630858436e+05   4.374455467e+03   3.352357725e+02   1.161610131e-05   1.641742926e-03   1.651576281e+00   3.938432038e-01   1.191497110e-05
-3.571099264e+05   4.377548732e+03   3.547971472e+02   1.228568376e-05   1.719324921e-03   1.651540279e+00   3.938089311e-01   1.260151397e-05
-3.511233191e+05   4.380962657e+03   3.755231237e+02   1.299372782e-05   1.800710088e-03   1.651459932e+00   3.937540948e-01   1.332747534e-05
-3.451263798e+05   4.384728321e+03   3.974809815e+02   1.374220097e-05   1.886114009e-03   1.651357293e+00   3.936903477e-01   1.409489220e-05
-3.391194734e+05   4.388879335e+03   4.207418414e+02   1.453319980e-05   1.975778264e-03   1.651150465e+00   3.935806453e-01   1.490588125e-05
-3.331029880e+05   4.393451945e+03   4.453801772e+02   1.536885571e-05   2.069965347e-03   1.650851607e+00   3.934299052e-01   1.576261357e-05
-3.270773305e+05   4.398485103e+03   4.714737933e+02   1.625130121e-05   2.168964914e-03   1.650504827e+00   3.932577968e-01   1.666730513e-05
-3.210429676e+05   4.404020517e+03   4.991044023e+02   1.718274391e-05   2.273121037e-03   1.650171280e+00   3.930911422e-01   1.762222765e-05
-3.150005186e+05   4.410102655e+03   5.283558036e+02   1.816533790e-05   2.382861963e-03   1.649927139e+00   3.929636776e-01   1.862963397e-05
-3.089509981e+05   4.416778702e+03   5.593137065e+02   1.920124299e-05   2.498816785e-03   1.649759412e+00   3.928703368e-01   1.969174114e-05
-3.028961882e+05   4.424098452e+03   5.920626656e+02   2.029247220e-05   2.621878486e-03   1.649644375e+00   3.928008080e-01   2.081061161e-05
-2.968368459e+05   4.432114130e+03   6.266949626e+02   2.144120492e-05   2.751245397e-03   1.649564028e+00   3.927473128e-01   2.198845462e-05
-2.907722876e+05   4.440880116e+03   6.633151362e+02   2.264987929e-05   2.887346826e-03   1.649494886e+00   3.926992118e-01   2.322777183e-05
-2.847022197e+05   4.450452572e+03   7.020299897e+02   2.392090754e-05   3.030933191e-03   1.649403572e+00   3.926415145e-01   2.453099299e-05
-2.786267872e+05   4.460888934e+03   7.429481919e+02   2.525655534e-05   3.182641809e-03   1.649314404e+00   3.925865889e-01   2.590045093e-05
-2.725462413e+05   4.472247285e+03   7.861811646e+02   2.665900919e-05   3.343060477e-03   1.649244785e+00   3.925428391e-01   2.733840267e-05
-2.664607717e+05   4.484585554e+03   8.318441047e+02   2.813042290e-05   3.512747899e-03   1.649180055e+00   3.925024271e-01   2.884705656e-05
-2.603703939e+05   4.497960568e+03   8.800586038e+02   2.967303682e-05   3.692242302e-03   1.649098396e+00   3.924545646e-01   3.042865658e-05
-2.542748895e+05   4.512426912e+03   9.309504279e+02   3.128902700e-05   3.882087686e-03   1.648972273e+00   3.923858106e-01   3.208540120e-05
-2.481738136e+05   4.528035624e+03   9.846521820e+02   3.298061719e-05   4.082854558e-03   1.648779035e+00   3.922848105e-01   3.381953520e-05
-2.420664934e+05   4.544832706e+03   1.041305264e+03   3.475011407e-05   4.295137423e-03   1.648527026e+00   3.921572268e-01   3.563342008e-05
-2.359517411e+05   4.562857474e+03   1.101057556e+03   3.659987262e-05   4.519098742e-03   1.648224711e+00   3.920066655e-01   3.752946264e-05
-2.298276838e+05   4.582140775e+03   1.164073815e+03   3.853267458e-05   4.754970203e-03   1.647881866e+00   3.918374181e-01   3.951048254e-05
-2.236915853e+05   4.602703096e+03   1.230535496e+03   4.055167580e-05   5.002436394e-03   1.647512436e+00   3.916556537e-01   4.157972048e-05
-2.175402642e+05   4.624552642e+03   1.300638797e+03   4.266041767e-05   5.262169737e-03   1.647133708e+00   3.914690614e-01   4.374079197e-05
-2.113708096e+05   4.647683444e+03   1.374591996e+03   4.486275181e-05   5.534937053e-03   1.646731615e+00   3.912716806e-01   4.599762445e-05
-2.051808195e+05   4.672073596e+03   1.452607457e+03   4.716259447e-05   5.821989154e-03   1.646296382e+00   3.910589516e-01   4.835422559e-05
-1.989694493e+05   4.697683740e+03   1.534891503e+03   4.956366301e-05   6.126379019e-03   1.645828485e+00   3.908312321e-01   5.081439456e-05
-1.927374250e+05   4.724455942e+03   1.621639889e+03   5.206943191e-05   6.450091862e-03   1.645329833e+00   3.905888498e-01   5.338163329e-05
-1.864805518e+05   4.752313101e+03   1.713123332e+03   5.468584948e-05   6.782681270e-03   1.644801855e+00   3.903323114e-01   5.606201436e-05
-1.801923646e+05   4.781159086e+03   1.809674721e+03   5.742092476e-05   7.130318190e-03   1.644246817e+00   3.900618851e-01   5.886374596e-05
-1.738676729e+05   4.810879759e+03   1.911630498e+03   6.028294145e-05   7.488932542e-03   1.643653035e+00   3.897730708e-01   6.179525979e-05
-1.674970515e+05   4.841345073e+03   2.019447010e+03   6.328401910e-05   7.851739399e-03   1.643018007e+00   3.894646764e-01   6.486898401e-05
-1.610765855e+05   4.872412405e+03   2.133515586e+03   6.643431896e-05   8.237886042e-03   1.642342687e+00   3.891363442e-01   6.809533216e-05
-1.546199547e+05   4.903931247e+03   2.253932685e+03   6.973503609e-05   8.675412519e-03   1.641629696e+00   3.887895942e-01   7.147547105e-05
-1.481328125e+05   4.935749313e+03   2.380922126e+03   7.319150871e-05   9.120507558e-03   1.640883923e+00   3.884258270e-01   7.501489953e-05
-1.416054617e+05   4.967720036e+03   2.515031561e+03   7.681921411e-05   9.577897098e-03   1.640106678e+00   3.880454302e-01   7.872939518e-05
-1.350349308e+05   4.999711300e+03   2.656722664e+03   8.063068170e-05   1.006042340e-02   1.639290333e+00   3.876445889e-01   8.263181080e-05
-1.284240781e+05   5.031615070e+03   2.806359589e+03   8.463311578e-05   1.057423548e-02   1.639376760e+00   3.876621425e-01   8.673163526e-05
-1.217699876e+05   5.063357412e+03   2.964435097e+03   8.881676227e-05   1.110007383e-02   1.639719367e+00   3.877873719e-01   9.104181752e-05
-1.150718616e+05   5.094908157e+03   3.131416548e+03   9.319988395e-05   1.166829163e-02   1.640169144e+00   3.879668117e-01   9.557366780e-05
-1.083492960e+05   5.126289284e+03   3.307283691e+03   9.780405758e-05   1.232143127e-02   1.640472770e+00   3.881028593e-01   1.003225456e-04
-1.016118381e+05   5.157580929e+03   3.492269940e+03   1.026614837e-04   1.298549770e-02   1.640452862e+00   3.881288171e-01   1.052903450e-04
-9.485010072e+04   5.188923918e+03   3.687156891e+03   1.077761010e-04   1.366899469e-02   1.640244961e+00   3.880904019e-01   1.104937708e-04
-8.805961642e+04   5.220517884e+03   3.892606060e+03   1.131279849e-04   1.438720306e-02   1.640072107e+00   3.880612850e-01   1.159436673e-04
-8.123951937e+04   5.252614376e+03   4.109155327e+03   1.187009603e-04   1.514919552e-02   1.640051365e+00   3.880808055e-01   1.216448609e-04
-7.439158153e+04   5.285505053e+03   4.337261927e+03   1.245036516e-04   1.596568877e-02   1.640099168e+00   3.881205916e-01   1.275975022e-04
-6.752139327e+04   5.319505816e+03   4.577272961e+03   1.305548459e-04   1.684987849e-02   1.640081406e+00   3.881349564e-01   1.337963948e-04
-6.063731578e+04   5.354938574e+03   4.829391287e+03   1.368363632e-04   1.781473853e-02   1.640045166e+00   3.881485164e-01   1.402303760e-04
-5.375033449e+04   5.392112979e+03   5.093656341e+03   1.433168163e-04   1.888385527e-02   1.640046358e+00   3.881847262e-01   1.468823011e-04
-4.687082334e+04   5.431310648e+03   5.370031886e+03   1.499908033e-04   2.005505332e-02   1.639969945e+00   3.881933391e-01   1.537321963e-04
-4.000897648e+04   5.472774003e+03   5.658427682e+03   1.568576569e-04   2.135407605e-02   1.639723063e+00   3.881317973e-01   1.607584323e-04
-3.317734880e+04   5.516700969e+03   5.958534999e+03   1.638598324e-04   2.280425133e-02   1.639447451e+00   3.880553246e-01   1.679335523e-04
-2.638739887e+04   5.563245526e+03   6.269883812e+03   1.709071629e-04   2.442913484e-02   1.639317751e+00   3.880341053e-01   1.752264130e-04
-1.965257983e+04   5.612523016e+03   6.591771040e+03   1.780187763e-04   2.627077285e-02   1.639091611e+00   3.879757822e-01   1.826005526e-04
-1.299394673e+04   5.664618416e+03   6.923121276e+03   1.852714359e-04   2.838674825e-02   1.638323307e+00   3.877042532e-01   1.900107040e-04
-6.436012846e+03   5.719595752e+03   7.262547541e+03   1.925767683e-04   3.082817234e-02   1.637122393e+00   3.872584105e-01   1.974049043e-04
0.000000000e+00   5.777507522e+03   7.608475983e+03   1.997975921e-04   3.365209635e-02   1.635789394e+00   3.867625296e-01   2.047282041e-04
2.428438425e+03   5.800440571e+03   7.742316654e+03   2.025313941e-04   3.485109667e-02   1.635234356e+00   3.865551651e-01   2.075032276e-04
4.835777756e+03   5.823767745e+03   7.876791130e+03   2.052404447e-04   3.612041832e-02   1.634653091e+00   3.863355219e-01   2.102588991e-04
7.220615253e+03   5.847490461e+03   8.011767250e+03   2.079168377e-04   3.746397422e-02   1.634045839e+00   3.861036003e-01   2.129913180e-04
9.581461619e+03   5.871608150e+03   8.147106456e+03   2.105544420e-04   3.888605147e-02   1.633409262e+00   3.858582675e-01   2.156965566e-04
1.191672634e+04   5.896118216e+03   8.282653852e+03   2.131485409e-04   4.039125529e-02   1.632738352e+00   3.855984807e-01   2.183704068e-04
1.422462964e+04   5.921015449e+03   8.418241038e+03   2.156993592e-04   4.198491868e-02   1.632021666e+00   3.853221238e-01   2.210084895e-04
1.650315388e+04   5.946291858e+03   8.553682562e+03   2.182104039e-04   4.367289804e-02   1.631239653e+00   3.850217462e-01   2.236061807e-04
1.875016208e+04   5.971937561e+03   8.688785158e+03   2.206826125e-04   4.546085159e-02   1.630381107e+00   3.846913874e-01   2.261588313e-04
2.096355781e+04   5.997941715e+03   8.823354847e+03   2.231142591e-04   4.735422455e-02   1.629440308e+00   3.843269050e-01   2.286619228e-04
2.314139636e+04   6.024292982e+03   8.957204045e+03   2.254998839e-04   4.935807598e-02   1.628427505e+00   3.839300871e-01   2.311112335e-04
2.528186137e+04   6.050978558e+03   9.090136643e+03   2.278319189e-04   5.147716635e-02   1.627351522e+00   3.835047781e-01   2.335024893e-04
2.738315962e+04   6.077982639e+03   9.221962927e+03   2.301049189e-04   5.371637283e-02   1.626211882e+00   3.830501735e-01   2.358318091e-04
2.944354950e+04   6.105286714e+03   9.352490338e+03   2.323141331e-04   5.608044611e-02   1.625004053e+00   3.825642169e-01   2.380954567e-04
3.146138993e+04   6.132870029e+03   9.481525609e+03   2.344555193e-04   5.857396636e-02   1.623724103e+00   3.820451796e-01   2.402898791e-04
3.343500064e+04   6.160707413e+03   9.608871920e+03   2.365256223e-04   6.120086691e-02   1.622365475e+00   3.814907670e-01   2.424117206e-04
3.536275345e+04   6.188770521e+03   9.734334583e+03   2.385215136e-04   6.396637956e-02   1.620922565e+00   3.808992207e-01   2.444579179e-04
3.724341872e+04   6.217032548e+03   9.857742356e+03   2.404409045e-04   6.687275717e-02   1.619388819e+00   3.802676201e-01   2.464260427e-04
3.907605557e+04   6.245466824e+03   9.978941762e+03   2.422822506e-04   6.992396767e-02   1.617757320e+00   3.795942962e-01   2.483141967e-04
4.085980229e+04   6.274044351e+03   1.009779140e+04   2.440441453e-04   7.312430076e-02   1.616038084e+00   3.788825870e-01   2.501209550e-04
4.259389818e+04   6.302734167e+03   1.021414846e+04   2.457255542e-04   7.647760438e-02   1.614248514e+00   3.781383634e-01   2.518450081e-04
4.427768665e+04   6.331503273e+03   1.032788717e+04   2.473255588e-04   7.998713619e-02   1.612385273e+00   3.773600459e-01   2.534856147e-04
4.591069680e+04   6.360318014e+03   1.043889526e+04   2.488438383e-04   8.365569374e-02   1.610443354e+00   3.765452802e-01   2.550424431e-04
4.749273199e+04   6.389145897e+03   1.054708108e+04   2.502805969e-04   8.748574723e-02   1.608418703e+00   3.756924272e-01   2.565156594e-04
4.902388897e+04   6.417956401e+03   1.065237214e+04   2.516363033e-04   9.147946045e-02   1.606309175e+00   3.747999370e-01   2.579058437e-04
5.050458437e+04   6.446722061e+03   1.075472653e+04   2.529121238e-04   9.563891187e-02   1.604112029e+00   3.738667667e-01   2.592142068e-04
5.193562573e+04   6.475420632e+03   1.085413572e+04   2.541097425e-04   9.996639830e-02   1.601824760e+00   3.728913963e-01   2.604425482e-04
5.331832912e+04   6.504038532e+03   1.095062530e+04   2.552314088e-04   1.044650469e-01   1.599446416e+00   3.718733490e-01   2.615931136e-04
5.465452348e+04   6.532572359e+03   1.104426772e+04   2.562800521e-04   1.091392195e-01   1.596997976e+00   3.708216548e-01   2.626688160e-04
5.594662290e+04   6.561031963e+03   1.113517882e+04   2.572590990e-04   1.139949496e-01   1.594487429e+00   3.697392642e-01   2.636730054e-04
5.719772660e+04   6.589444280e+03   1.122352984e+04   2.581722423e-04   1.190395577e-01   1.591909885e+00   3.686236441e-01   2.646095761e-04
5.841134103e+04   6.617847987e+03   1.130953038e+04   2.590235125e-04   1.242762720e-01   1.589258552e+00   3.674708605e-01   2.654827603e-04
5.959080244e+04   6.646281422e+03   1.139337229e+04   2.598166411e-04   1.297212463e-01   1.586524963e+00   3.662769496e-01   2.662962894e-04
6.073925365e+04   6.674781982e+03   1.147525168e+04   2.605552094e-04   1.353857645e-01   1.583702326e+00   3.650381863e-01   2.670539450e-04
6.186052125e+04   6.703409169e+03   1.155541440e+04   2.612430317e-04   1.413065500e-01   1.580780745e+00   3.637493253e-01   2.677596866e-04
6.295937064e+04   6.732253592e+03   1.163417309e+04   2.618841279e-04   1.475131298e-01   1.577747822e+00   3.624041378e-01   2.684176683e-04
6.404101816e+04   6.761424926e+03   1.171188444e+04   2.624826522e-04   1.540438354e-01   1.574590921e+00   3.609961271e-01   2.690321820e-04
6.511080120e+04   6.791043951e+03   1.178891225e+04   2.630426031e-04   1.609452519e-01   1.571321249e+00   3.595304191e-01   2.696071221e-04
6.617406251e+04   6.821239010e+03   1.186562812e+04   2.635676710e-04   1.682719150e-01   1.567924976e+00   3.579997122e-01   2.701461494e-04
6.723612268e+04   6.852144114e+03   1.194240866e+04   2.640610589e-04   1.760867299e-01   1.564376116e+00   3.563914895e-01   2.706527070e-04
6.830222195e+04   6.883895693e+03   1.201961766e+04   2.645257367e-04   1.844613062e-01   1.560646534e+00   3.546918631e-01   2.711297507e-04
6.937741234e+04   6.916627275e+03   1.209762104e+04   2.649645105e-04   1.934756500e-01   1.556708217e+00   3.528858721e-01   2.715803068e-04
7.046643533e+04   6.950462976e+03   1.217675418e+04   2.653798506e-04   2.032171615e-01   1.552531958e+00   3.509583175e-01   2.720069967e-04
7.157359230e+04   6.985510145e+03   1.225733115e+04   2.657743868e-04   2.137790354e-01   1.548087835e+00   3.488930464e-01   2.724125379e-04
7.270255421e+04   7.021849767e+03   1.233961058e+04   2.661505504e-04   2.252564993e-01   1.543362021e+00   3.466811180e-01   2.727993727e-04
7.385643291e+04   7.059535888e+03   1.242382410e+04   2.665115217e-04   2.377437114e-01   1.538384438e+00   3.443349898e-01   2.731703321e-04
7.503703959e+04   7.098568433e+03   1.251010389e+04   2.668599047e-04   2.513201779e-01   1.533144474e+00   3.418461680e-01   2.735281127e-04
7.624432619e+04   7.138872370e+03   1.259844709e+04   2.671980568e-04   2.660809905e-01   1.527636051e+00   3.392081857e-01   2.738753398e-04
7.747720305e+04   7.180324423e+03   1.268877412e+04   2.675285683e-04   2.820931064e-01   1.521858931e+00   3.364172280e-01   2.742148190e-04
7.873414346e+04   7.222774589e+03   1.278097983e+04   2.678544483e-04   2.994061524e-01   1.515820622e+00   3.334726691e-01   2.745498135e-04
8.001302107e+04   7.266044315e+03   1.287491074e+04   2.681787761e-04   3.180528836e-01   1.509539604e+00   3.303797841e-01   2.748836258e-04
8.131110622e+04   7.309932745e+03   1.297036505e+04   2.685051826e-04   3.380523434e-01   1.503104925e+00   3.271802366e-01   2.752193566e-04
8.262598454e+04   7.354253201e+03   1.306717508e+04   2.688369000e-04   3.594194437e-01   1.496550322e+00   3.238889277e-01   2.755602598e-04
8.395608910e+04   7.398853234e+03   1.316522855e+04   2.691768354e-04   3.821739700e-01   1.489891768e+00   3.205119967e-01   2.759094266e-04
8.530074287e+04   7.443617325e+03   1.326448000e+04   2.695277245e-04   4.063449987e-01   1.483140945e+00   3.170536458e-01   2.762699120e-04
8.666026184e+04   7.488470435e+03   1.336496780e+04   2.698924555e-04   4.319772507e-01   1.476307154e+00   3.135168552e-01   2.766449373e-04
8.803556296e+04   7.533364975e+03   1.346676157e+04   2.702740760e-04   4.591289625e-01   1.469420671e+00   3.099163473e-01   2.770372690e-04
8.942783967e+04   7.578270978e+03   1.356995654e+04   2.706757549e-04   4.878711443e-01   1.462538004e+00   3.062815666e-01   2.774495026e-04
9.083868074e+04   7.623177856e+03   1.367469338e+04   2.710997823e-04   5.182786615e-01   1.455657959e+00   3.026107848e-01   2.778843529e-04
